Time,Extension,Load
(s),(mm),(N)
0.00000,0.00000,-0.01958
0.10000,0.07370,0.05367
0.19100,0.16721,2.56286
0.29100,0.26728,3.56840
0.39100,0.36718,5.70502
0.49100,0.46745,5.81827
0.59100,0.56721,5.65898
0.69100,0.66740,5.34573
0.79100,0.76734,5.24111
0.89100,0.86720,5.14034
0.99100,0.96741,5.03122
1.09100,1.06718,4.95415
1.19100,1.16740,4.88289
1.29100,1.26728,4.78365
1.39100,1.36726,4.68330
1.49100,1.46737,4.58965
1.59100,1.56725,4.54123
1.69100,1.66738,4.46430
1.79100,1.76717,4.47568
1.89100,1.86740,4.43534
1.99100,1.96731,4.43723
2.09100,2.06723,4.41717
2.19100,2.16749,4.42438
2.29100,2.26715,4.39923
2.39100,2.36742,4.38933
2.49100,2.46728,4.37611
2.59100,2.56722,4.35025
2.69100,2.66741,4.33723
2.79100,2.76722,4.35397
2.89100,2.86739,4.36077
2.99100,2.96720,4.37915
3.09100,3.06739,4.41052
3.19100,3.16737,4.40675
3.29100,3.26720,4.46480
3.39100,3.36743,4.49478
3.49100,3.46717,4.50774
3.59100,3.56736,4.51253
3.69100,3.66733,4.53455
3.79100,3.76727,4.54427
3.89100,3.86743,4.54170
3.99100,3.96723,4.55565
4.09100,4.06741,4.52655
4.19100,4.16721,4.56645
4.29100,4.26732,4.58557
4.39100,4.36737,4.59757
4.49100,4.46722,4.55904
4.59100,4.56743,4.59586
4.69100,4.66722,4.61703
4.79100,4.76742,4.61099
4.89100,4.86728,4.62510
4.99100,4.96725,4.62852
5.09100,5.06747,4.61929
5.19100,5.16710,4.64288
5.29100,5.26747,4.64975
5.39100,5.36729,4.69798
5.49100,5.46729,4.66813
5.59100,5.56737,4.69393
5.69100,5.66723,4.68320
5.79100,5.76741,4.68784
5.89100,5.86719,4.69287
5.99100,5.96743,4.68590
6.09100,6.06730,4.65901
6.19100,6.16720,4.66761
6.29100,6.26748,4.69659
6.39100,6.36718,4.67003
6.49100,6.46737,4.64293
6.59100,6.56729,4.65784
6.69100,6.66729,4.64530
6.79100,6.76736,4.63717
6.89100,6.86722,4.64501
6.99100,6.96747,4.64118
7.09100,7.06720,4.62644
7.19100,7.16738,4.60839
7.29100,7.26731,4.64673
7.39100,7.36719,4.63100
7.49100,7.46748,4.61373
7.59100,7.56720,4.61418
7.69100,7.66736,4.64321
7.79100,7.76730,4.62878
7.89100,7.86725,4.65234
7.99100,7.96742,4.62409
8.09100,8.06717,4.64859
8.19100,8.16748,4.64822
8.29100,8.26725,4.64986
8.39100,8.36727,4.64484
8.49100,8.46739,4.63259
8.59100,8.56725,4.64112
8.69100,8.66747,4.63917
8.79100,8.76717,4.63719
8.89100,8.86740,4.64581
8.99100,8.96724,4.63203
9.09100,9.06726,4.64701
9.19100,9.16746,4.66768
9.29100,9.26715,4.66147
9.39100,9.36740,4.63572
9.49100,9.46731,4.64960
9.59100,9.56732,4.67066
9.69100,9.66735,4.65909
9.79100,9.76726,4.67730
9.89100,9.86743,4.72865
9.99100,9.96709,4.67580
10.09100,10.06746,4.67335
10.19100,10.16735,4.70424
10.29100,10.26725,4.70037
10.39100,10.36748,4.70950
10.49100,10.46718,4.72335
10.59100,10.56735,4.72504
10.69100,10.66732,4.71280
10.79100,10.76730,4.72429
10.89100,10.86734,4.71856
10.99100,10.96722,4.70983
11.09100,11.06743,4.73271
11.19100,11.16720,4.71305
11.29100,11.26739,4.73126
11.39100,11.36735,4.72822
11.49100,11.46722,4.72882
11.59100,11.56740,4.71993
11.69100,11.66718,4.70863
11.79100,11.76746,4.73713
11.89100,11.86726,4.73294
11.99100,11.96731,4.73460
12.09100,12.06740,4.71845
12.19100,12.16713,4.73544
12.29100,12.26748,4.73104
12.39100,12.36727,4.74361
12.49100,12.46732,4.74721
12.59100,12.56735,4.73613
12.69100,12.66724,4.75818
12.79100,12.76742,4.76488
12.89100,12.86719,4.74569
12.99100,12.96745,4.75925
13.09100,13.06726,4.76401
13.19100,13.16720,4.78132
13.29100,13.26746,4.78641
13.39100,13.36720,4.77382
13.49100,13.46742,4.78178
13.59100,13.56727,4.76448
13.69100,13.66737,4.78203
13.79100,13.76729,4.78912
13.89100,13.86726,4.80427
13.99100,13.96747,4.78945
14.09100,14.06714,4.81996
14.19100,14.16741,4.78503
14.29100,14.26733,4.82147
14.39100,14.36720,4.82014
14.49100,14.46748,4.82334
14.59100,14.56719,4.83701
14.69100,14.66732,4.84243
14.79100,14.76725,4.82524
14.89100,14.86732,4.83335
14.99100,14.96741,4.80840
15.09100,15.06721,4.82536
15.19100,15.16746,4.80103
15.29100,15.26722,4.83209
15.39100,15.36733,4.82337
15.49100,15.46737,4.80887
15.59100,15.56727,4.83499
15.69100,15.66742,4.83723
15.79100,15.76717,4.83732
15.89100,15.86742,4.82205
15.99100,15.96727,4.84613
16.09100,16.06726,4.84383
16.19100,16.16744,4.80827
16.29100,16.26711,4.86303
16.39100,16.36739,4.82211
16.49100,16.46723,4.81540
16.59100,16.56742,4.81827
16.69100,16.66733,4.81885
16.79100,16.76726,4.83135
16.89100,16.86749,4.82881
16.99100,16.96710,4.85696
17.09100,17.06742,4.84300
17.19100,17.16730,4.83451
17.29100,17.26720,4.84504
17.39100,17.36745,4.83930
17.49100,17.46721,4.84011
17.59100,17.56740,4.84342
17.69100,17.66724,4.84259
17.79100,17.76734,4.84153
17.89100,17.86725,4.84955
17.99100,17.96725,4.87890
18.09100,18.06749,4.85477
18.19100,18.16717,4.88851
18.29100,18.26744,4.86923
18.39100,18.36733,4.89592
18.49100,18.46723,4.87818
18.59100,18.56738,4.88117
18.69100,18.66720,4.86240
18.79100,18.76742,4.87496
18.89100,18.86722,4.89289
18.99100,18.96732,4.87690
19.09100,19.06738,4.86076
19.19100,19.16722,4.88472
19.29100,19.26746,4.88296
19.39100,19.36718,4.89065
19.49100,19.46729,4.89941
19.59100,19.56732,4.89466
19.69100,19.66722,4.86588
19.79100,19.76748,4.88509
19.89100,19.86715,4.90345
19.99100,19.96747,4.88517
20.09100,20.06730,4.90601
20.19100,20.16724,4.88314
20.29100,20.26742,4.90885
20.39100,20.36724,4.90317
20.49100,20.46737,4.90772
20.59100,20.56720,4.89587
20.69100,20.66737,4.90655
20.79100,20.76733,4.92800
20.89100,20.86726,4.91237
20.99100,20.96745,4.91935
21.09100,21.06708,4.89803
21.19100,21.16743,4.93481
21.29100,21.26727,4.91995
21.39100,21.36724,4.92658
21.49100,21.46741,4.92118
21.59100,21.56720,4.91858
21.69100,21.66745,4.90179
21.79100,21.76721,4.93419
21.89100,21.86736,4.91973
21.99100,21.96734,4.92329
22.09100,22.06723,4.92979
22.19100,22.16744,4.93965
22.29100,22.26716,4.92988
22.39100,22.36741,4.92749
22.49100,22.46730,4.94239
22.59100,22.56721,4.92088
22.69100,22.66737,4.91859
22.79100,22.76719,4.94175
22.89100,22.86742,4.92503
22.99100,22.96727,4.94090
23.09100,23.06733,4.93174
23.19100,23.16736,4.92709
23.29100,23.26724,4.91237
23.39100,23.36741,4.95389
23.49100,23.46716,4.93493
23.59100,23.56742,4.94556
23.69100,23.66730,4.95034
23.79100,23.76722,4.93653
23.89100,23.86744,4.94360
23.99100,23.96718,4.94818
24.09100,24.06743,4.97033
24.19100,24.16724,4.95025
24.29100,24.26725,4.96724
24.39100,24.36743,4.97227
24.49100,24.46718,4.95774
24.59100,24.56747,4.96682
24.69100,24.66722,4.97335
24.79100,24.76739,4.99066
24.89100,24.86732,4.98466
24.99100,24.96722,4.98552
25.09100,25.06744,4.96373
25.19100,25.16716,4.98497
25.29100,25.26742,4.98146
25.39100,25.36731,5.01532
25.49100,25.46723,5.01657
25.59100,25.56745,4.97583
25.69100,25.66720,4.99731
25.79100,25.76740,5.00948
25.89100,25.86719,4.99126
25.99100,25.96740,5.02228
26.09100,26.06730,4.97088
26.19100,26.16722,4.98203
26.29100,26.26749,4.97739
26.39100,26.36717,5.00331
26.49100,26.46745,4.97160
26.59100,26.56730,4.97500
26.69100,26.66720,4.98581
26.79100,26.76747,4.97621
26.89100,26.86716,4.97718
26.99100,26.96739,4.98676
27.09100,27.06725,4.98601
27.19100,27.16736,4.98666
27.29100,27.26737,4.97924
27.39100,27.36719,5.00058
27.49100,27.46746,4.98080
27.59100,27.56719,4.99875
27.69100,27.66735,4.98749
27.79100,27.76734,4.98825
27.89100,27.86725,4.99937
27.99100,27.96746,4.98788
28.09100,28.06719,4.99293
28.19100,28.16742,4.98589
28.29100,28.26723,5.00695
28.39100,28.36729,5.01387
28.49100,28.46741,4.99824
28.59100,28.56720,5.01598
28.69100,28.66741,4.98896
28.79100,28.76724,5.02854
28.89100,28.86737,5.03578
28.99100,28.96731,5.02335
29.09100,29.06725,5.02527
29.19100,29.16747,5.04050
29.29100,29.26710,5.04207
29.39100,29.36748,5.03098
29.49100,29.46728,5.03770
29.59100,29.56728,5.04814
29.69100,29.66741,5.00353
29.79100,29.76720,5.05017
29.89100,29.86738,5.04491
29.99100,29.96725,5.04046
30.09100,30.06740,5.03862
30.19100,30.16730,5.03236
30.29100,30.26722,5.04295
30.39100,30.36748,5.03746
30.49100,30.46718,5.03628
30.59100,30.56741,5.02221
30.69100,30.66732,5.02906
30.79100,30.76726,5.05001
30.89100,30.86738,5.04378
30.99100,30.96721,5.05083
31.09100,31.06746,5.02967
31.19100,31.16722,5.05141
31.29100,31.26736,5.03307
31.39100,31.36734,5.02563
31.49100,31.46716,5.04044
31.59100,31.56748,5.04764
31.69100,31.66722,5.04406
31.79100,31.76736,5.05699
31.89100,31.86729,5.04620
31.99100,31.96725,5.03960
32.09100,32.06742,5.05925
32.19100,32.16716,5.05464
32.29100,32.26748,5.05584
32.39100,32.36726,5.08054
32.49100,32.46723,5.08555
32.59100,32.56743,5.08021
32.69100,32.66725,5.07830
32.79100,32.76746,5.10423
32.89100,32.86721,5.12458
32.99100,32.96744,5.09435
33.09100,33.06726,5.11756
33.19100,33.16727,5.08693
33.29100,33.26748,5.11751
33.39100,33.36711,5.13688
33.49100,33.46743,5.12821
33.59100,33.56731,5.13813
33.69100,33.66723,5.13613
33.79100,33.76740,5.13491
33.89100,33.86726,5.13502
33.99100,33.96739,5.14088
34.09100,34.06714,5.15569
34.19100,34.16743,5.13422
34.29100,34.26735,5.14354
34.39100,34.36722,5.14976
34.49100,34.46749,5.16141
34.59100,34.56717,5.16208
34.69100,34.66735,5.17253
34.79100,34.76733,5.17674
34.89100,34.86727,5.16297
34.99100,34.96739,5.16940
35.09100,35.06723,5.19925
35.19100,35.16745,5.16760
35.29100,35.26725,5.19829
35.39100,35.36732,5.18714
35.49100,35.46740,5.18318
35.59100,35.56717,5.17000
35.69100,35.66741,5.22712
35.79100,35.76718,5.20470
35.89100,35.86746,5.22025
35.99100,35.96731,5.21015
36.09100,36.06727,5.22553
36.19100,36.16746,5.20746
36.29100,36.26711,5.24445
36.39100,36.36746,5.25666
36.49100,36.46726,5.24798
36.59100,36.56725,5.23405
36.69100,36.66739,5.25200
36.79100,36.76724,5.26483
36.89100,36.86740,5.29218
36.99100,36.96721,5.26505
37.09100,37.06744,5.27083
37.19100,37.16725,5.26358
37.29100,37.26721,5.30625
37.39100,37.36749,5.30212
37.49100,37.46715,5.30299
37.59100,37.56743,5.32699
37.69100,37.66731,5.31614
37.79100,37.76732,5.32071
37.89100,37.86735,5.35012
37.99100,37.96725,5.34469
38.09100,38.06744,5.35508
38.19100,38.16714,5.30673
38.29100,38.26738,5.37777
38.39100,38.36734,5.34174
38.49100,38.46722,5.38512
38.59100,38.56746,5.36375
38.69100,38.66717,5.38810
38.79100,38.76734,5.38914
38.89100,38.86728,5.39870
38.99100,38.96728,5.40372
39.09100,39.06744,5.38008
39.19100,39.16721,5.40985
39.29100,39.26746,5.43681
39.39100,39.36724,5.39950
39.49100,39.46730,5.42481
39.59100,39.56736,5.42243
39.69100,39.66726,5.42948
39.79100,39.76743,5.43294
39.89100,39.86718,5.48566
39.99100,39.96741,5.45298
40.09100,40.06731,5.43967
40.19100,40.16726,5.46914
40.29100,40.26744,5.46095
40.39100,40.36708,5.48050
40.49100,40.46743,5.48668
40.59100,40.56726,5.48616
40.69100,40.66736,5.49655
40.79100,40.76735,5.52642
40.89100,40.86725,5.54059
40.99100,40.96748,5.50457
41.09100,41.06710,5.52933
41.19100,41.16743,5.54254
41.29100,41.26731,5.55899
41.39100,41.36720,5.59057
41.49100,41.46748,5.58559
41.59100,41.56717,5.61609
41.69100,41.66741,5.60302
41.79100,41.76727,5.64655
41.89100,41.86729,5.67349
41.99100,41.96728,5.63766
42.09100,42.06721,5.67545
42.19100,42.16745,5.69514
42.29100,42.26719,5.72492
42.39100,42.36742,5.74730
42.49100,42.46732,5.74070
42.59100,42.56726,5.75765
42.69100,42.66740,5.79420
42.79100,42.76713,5.83048
42.89100,42.86742,5.84382
42.99100,42.96727,5.83150
43.09100,43.06725,5.87138
43.19100,43.16741,5.84790
43.29100,43.26723,5.92493
43.39100,43.36744,5.94191
43.49100,43.46721,5.93015
43.59100,43.56727,5.96198
43.69100,43.66735,5.99988
43.79100,43.76721,6.03114
43.89100,43.86745,6.02328
43.99100,43.96715,6.04934
44.09100,44.06744,6.05789
44.19100,44.16732,6.09907
44.29100,44.26722,6.13814
44.39100,44.36742,6.14894
44.49100,44.46720,6.17403
44.59100,44.56738,6.16915
44.69100,44.66725,6.19423
44.79100,44.76731,6.21758
44.89100,44.86739,6.23402
44.99100,44.96724,6.28252
45.09100,45.06744,6.27589
45.19100,45.16711,6.29784
45.29100,45.26744,6.31648
45.39100,45.36729,6.38205
45.49100,45.46723,6.34916
45.59100,45.56744,6.36996
45.69100,45.66718,6.42286
45.79100,45.76743,6.41022
45.89100,45.86723,6.44401
45.99100,45.96728,6.46010
46.09100,46.06740,6.46868
46.19100,46.16723,6.46206
46.29100,46.26743,6.56943
46.39100,46.36720,6.58885
46.49100,46.46739,6.67289
46.59100,46.56733,6.76129
46.69100,46.66718,6.81902
46.79100,46.76742,6.89617
46.89100,46.86716,6.96590
46.99100,46.96739,7.05614
47.09100,47.06729,7.12057
47.19100,47.16730,7.20245
47.29100,47.26739,7.30612
47.39100,47.36722,7.38027
47.49100,47.46741,7.42809
47.59100,47.56718,7.54509
47.69100,47.66742,7.64890
47.79100,47.76733,7.78754
47.89100,47.86723,7.89757
47.99100,47.96743,8.00142
48.09100,48.06717,8.09505
48.19100,48.16742,8.23885
48.29100,48.26728,8.38862
48.39100,48.36723,8.52238
48.49100,48.46744,8.65196
48.59100,48.56715,8.81308
48.69100,48.66747,8.94692
48.79100,48.76725,9.11012
48.89100,48.86737,9.29437
48.99100,48.96734,9.49096
49.09100,49.06721,9.64219
49.19100,49.16740,9.89418
49.29100,49.26719,10.10990
49.39100,49.36743,10.29092
49.49100,49.46731,10.53119
49.59100,49.56722,10.74422
49.69100,49.66745,10.98407
49.79100,49.76718,11.21614
49.89100,49.86740,11.45480
49.99100,49.96724,11.66739
50.09100,50.06734,11.90239
50.19100,50.16733,12.13195
50.29100,50.26725,12.37317
50.39100,50.36749,12.57190
50.49100,50.46717,12.78041
50.59100,50.56743,12.92656
50.69100,50.66731,13.14199
50.79100,50.76719,13.35986
50.89100,50.86747,13.54678
50.99100,50.96718,13.67670
51.09100,51.06738,13.87750
51.19100,51.16724,14.07079
51.29100,51.26728,14.29578
51.39100,51.36739,14.51201
51.49100,51.46721,14.76866
51.59100,51.56744,14.99875
51.69100,51.66721,15.20722
51.79100,51.76733,15.46834
51.89100,51.86736,15.68232
51.99100,51.96725,15.90360
52.09100,52.06747,16.12702
52.19100,52.16716,16.32217
52.29100,52.26744,16.50243
52.39100,52.36719,16.62875
52.49100,52.46729,16.80945
52.59100,52.56742,16.91293
52.69100,52.66716,17.03372
52.79100,52.76741,17.12700
52.89100,52.86726,17.16692
52.99100,52.96735,17.25805
53.09100,53.06734,17.27172
53.19100,53.16727,17.29249
53.29100,53.26745,17.27612
53.39100,53.36708,17.25220
53.49100,53.46747,17.17301
53.59100,53.56733,17.08329
53.69100,53.66724,17.04540
53.79100,53.76744,16.92606
53.89100,53.86721,16.87662
53.99100,53.96738,16.77419
54.09100,54.06730,16.75489
54.19100,54.16737,16.74054
54.29100,54.26730,16.68272
54.39100,54.36722,16.64921
54.49100,54.46745,16.57762
54.59100,54.56720,16.53650
54.69100,54.66741,16.51711
54.79100,54.76736,16.44250
54.89100,54.86724,16.40508
54.99100,54.96739,16.29822
55.09100,55.06718,16.27036
55.19100,55.16744,16.19150
55.29100,55.26727,16.15630
55.39100,55.36731,16.08570
55.49100,55.46738,15.93420
55.59100,55.56718,15.88159
55.69100,55.66748,15.81593
55.79100,55.76723,15.72801
55.89100,55.86732,15.60459
55.99100,55.96731,15.49880
56.09100,56.06725,15.38901
56.19100,56.16744,15.24753
56.29100,56.26716,15.17450
56.39100,56.36747,14.97163
56.49100,56.46725,14.80203
56.59100,56.56720,14.68916
56.69100,56.66743,14.47655
56.79100,56.76723,14.30366
56.89100,56.86743,14.11714
56.99100,56.96723,14.00120
57.09100,57.06739,13.92324
57.19100,57.16726,13.86479
57.29100,57.26727,13.84426
57.39100,57.36749,13.80184
57.49100,57.46712,13.96151
57.59100,57.56739,14.09032
57.69100,57.66734,14.31380
57.79100,57.76723,14.72434
57.89100,57.86743,15.86755
57.97900,57.95517,18.38358
58.02400,58.00023,20.39510
