Time,Extension,Load
(s),(mm),(N)
0.00000,0.00000,0.02148
0.10000,0.07241,0.02496
0.20000,0.17565,0.01308
0.26800,0.24330,2.53247
0.36800,0.34341,2.95067
0.46800,0.44363,2.36171
0.56800,0.54342,2.24718
0.66800,0.64359,2.29433
0.76800,0.74340,2.28998
0.86800,0.84345,2.24654
0.96800,0.94352,2.23489
1.06800,1.04334,2.24957
1.16800,1.14372,2.25998
1.26800,1.24328,2.23742
1.36800,1.34365,2.22844
1.46800,1.44350,2.22896
1.56800,1.54337,2.21897
1.66800,1.64359,2.20267
1.76800,1.74341,2.16556
1.86800,1.84359,2.20652
1.96800,1.94342,2.14274
2.06800,2.04348,2.15996
2.16800,2.14351,2.09466
2.26800,2.24337,2.08913
2.36800,2.34365,2.08075
2.46800,2.44329,2.04808
2.56800,2.54362,2.02442
2.66800,2.64346,2.01909
2.76800,2.74342,2.01953
2.86800,2.84360,2.02228
2.96800,2.94338,2.00958
3.06800,3.04362,1.99826
3.16800,3.14343,1.95087
3.26800,3.24338,2.01967
3.36800,3.34361,2.01288
3.46800,3.44337,2.00865
3.56800,3.54361,2.01289
3.66800,3.64334,2.02099
3.76800,3.74362,2.03682
3.86800,3.84349,2.04225
3.96800,3.94338,2.04193
4.06800,4.04361,2.04159
4.16800,4.14337,2.10884
4.26800,4.24355,2.13166
4.36800,4.34353,2.13653
4.46800,4.44338,2.13900
4.56800,4.54364,2.14726
4.66800,4.64342,2.15423
4.76800,4.74362,2.19308
4.86800,4.84331,2.18166
4.96800,4.94357,2.20856
5.06800,5.04350,2.19873
5.16800,5.14337,2.20649
5.26800,5.24364,2.25281
5.36800,5.34336,2.25610
5.46800,5.44359,2.25107
5.56800,5.54348,2.26984
5.66800,5.64339,2.26193
5.76800,5.74365,2.30168
5.86800,5.84331,2.32759
5.96800,5.94369,2.28287
6.06800,6.04336,2.29120
6.16800,6.14354,2.33685
6.26800,6.24355,2.34753
6.36800,6.34341,2.31177
6.46800,6.44359,2.30917
6.56800,6.54340,2.32896
6.66800,6.64361,2.34941
6.76800,6.74345,2.33554
6.86800,6.84336,2.35714
6.96800,6.94368,2.32973
7.06800,7.04331,2.37615
7.16800,7.14362,2.37969
7.26800,7.24341,2.37081
7.36800,7.34348,2.37965
7.46800,7.44351,2.39478
7.56800,7.54344,2.41289
7.66800,7.64361,2.38190
7.76800,7.74338,2.42499
7.86800,7.84359,2.40168
7.96800,7.94349,2.41772
8.06800,8.04329,2.43340
8.16800,8.14371,2.41837
8.26800,8.24335,2.44274
8.36800,8.34358,2.45047
8.46800,8.44344,2.45538
8.56800,8.54344,2.45606
8.66800,8.64358,2.43674
8.76800,8.74340,2.49737
8.86800,8.84364,2.46783
8.96800,8.94339,2.46154
9.06800,9.04349,2.47807
9.16800,9.14358,2.49299
9.26800,9.24337,2.51784
9.36800,9.34369,2.52300
9.46800,9.44335,2.54204
9.56800,9.54360,2.50264
9.66800,9.64338,2.50123
9.76800,9.74345,2.52244
9.86800,9.84364,2.52794
9.96800,9.94335,2.52994
10.06800,10.04361,2.53872
10.16800,10.14343,2.57144
10.26800,10.24350,2.58324
10.36800,10.34354,2.58872
10.46800,10.44343,2.58553
10.56800,10.54365,2.61619
10.66800,10.64323,2.63872
10.76800,10.74368,2.62318
10.86800,10.84348,2.64363
10.96800,10.94343,2.66465
11.06800,11.04368,2.66180
11.16800,11.14338,2.63510
11.26800,11.24353,2.67760
11.36800,11.34347,2.66197
11.46800,11.44350,2.70716
11.56800,11.54350,2.68381
11.66800,11.64337,2.69539
11.76800,11.74368,2.70199
11.86800,11.84333,2.69458
11.96800,11.94360,2.68520
12.06800,12.04351,2.72330
12.16800,12.14338,2.71600
12.26800,12.24359,2.73502
12.36800,12.34340,2.76427
12.46800,12.44363,2.72768
12.56800,12.54344,2.73652
12.66800,12.64346,2.75126
12.76800,12.74361,2.76200
12.86800,12.84330,2.75190
12.96800,12.94369,2.78953
13.06800,13.04341,2.78200
13.16800,13.14351,2.76784
13.26800,13.24352,2.79534
13.36800,13.34340,2.78178
13.46800,13.44363,2.79347
13.56800,13.54335,2.83586
13.66800,13.64366,2.82141
13.76800,13.74343,2.83895
13.86800,13.84335,2.82861
13.96800,13.94368,2.85100
14.06800,14.04340,2.84041
14.16800,14.14362,2.85733
14.26800,14.24342,2.84343
14.36800,14.34356,2.85168
14.46800,14.44343,2.86994
14.56800,14.54345,2.87101
14.66800,14.64368,2.92497
14.76800,14.74329,2.86823
14.86800,14.84360,2.90872
14.96800,14.94351,2.90225
15.06800,15.04337,2.93944
15.16800,15.14365,2.90619
15.26800,15.24340,2.93668
15.36800,15.34356,2.95259
15.46800,15.44337,2.94566
15.56800,15.54352,2.97447
15.66800,15.64357,2.93961
15.76800,15.74339,2.94173
15.86800,15.84366,2.98130
15.96800,15.94338,2.97473
16.06800,16.04351,2.96902
16.16800,16.14353,2.98114
16.26800,16.24345,3.00508
16.36800,16.34362,3.01845
16.46800,16.44335,2.99247
16.56800,16.54360,3.02700
16.66800,16.64341,3.01195
16.76800,16.74346,3.05070
16.86800,16.84361,3.05226
16.96800,16.94333,3.03374
17.06800,17.04359,3.02944
17.16800,17.14338,3.04356
17.26800,17.24362,3.03746
17.36800,17.34348,3.05229
17.46800,17.44343,3.03502
17.56800,17.54371,3.04841
17.66800,17.64323,3.03289
17.76800,17.74365,3.09966
17.86800,17.84349,3.08009
17.96800,17.94339,3.09692
18.06800,18.04363,3.08287
18.16800,18.14340,3.11733
18.26800,18.24359,3.12032
18.36800,18.34335,3.11076
18.46800,18.44357,3.13188
18.56800,18.54340,3.11657
18.66800,18.64339,3.14563
18.76800,18.74371,3.15348
18.86800,18.84334,3.14977
18.96800,18.94361,3.14927
19.06800,19.04349,3.15191
19.16800,19.14343,3.19011
19.26800,19.24356,3.16813
19.36800,19.34338,3.20347
19.46800,19.44367,3.18090
19.56800,19.54336,3.16608
19.66800,19.64351,3.21745
19.76800,19.74356,3.19124
19.86800,19.84339,3.19358
19.96800,19.94367,3.15513
20.06800,20.04334,3.22149
20.16800,20.14347,3.22885
20.26800,20.24348,3.20477
20.36800,20.34337,3.23806
20.46800,20.44370,3.22993
20.56800,20.54331,3.23051
20.66800,20.64367,3.22575
20.76800,20.74347,3.23806
20.86800,20.84342,3.28054
20.96800,20.94360,3.24095
21.06800,21.04340,3.27459
21.16800,21.14359,3.24156
21.26800,21.24332,3.29843
21.36800,21.34356,3.28229
21.46800,21.44352,3.30964
21.56800,21.54339,3.29128
21.66800,21.64368,3.27092
21.76800,21.74324,3.30350
21.86800,21.84360,3.30493
21.96800,21.94345,3.31480
22.06800,22.04344,3.30683
22.16800,22.14354,3.30885
22.26800,22.24340,3.33735
22.36800,22.34365,3.35767
22.46800,22.44333,3.34941
22.56800,22.54353,3.33330
22.66800,22.64354,3.36024
22.76800,22.74338,3.39413
22.86800,22.84366,3.37557
22.96800,22.94332,3.39038
23.06800,23.04361,3.37186
23.16800,23.14348,3.37956
23.26800,23.24340,3.41790
23.36800,23.34355,3.39488
23.46800,23.44338,3.39731
23.56800,23.54361,3.40877
23.66800,23.64344,3.41617
23.76800,23.74347,3.40122
23.86800,23.84354,3.42045
23.96800,23.94342,3.43068
24.06800,24.04360,3.40770
24.16800,24.14332,3.42673
24.26800,24.24365,3.41974
24.36800,24.34345,3.46505
24.46800,24.44339,3.43593
24.56800,24.54365,3.43697
24.66800,24.64338,3.45003
24.76800,24.74360,3.46356
24.86800,24.84342,3.45654
24.96800,24.94343,3.47388
25.06800,25.04354,3.45226
25.16800,25.14336,3.45987
25.26800,25.24368,3.47274
25.36800,25.34332,3.47473
25.46800,25.44361,3.47136
25.56800,25.54350,3.48736
25.66800,25.64337,3.50529
25.76800,25.74364,3.50644
25.86800,25.84337,3.52187
25.96800,25.94360,3.49358
26.06800,26.04345,3.53805
26.16800,26.14345,3.52314
26.26800,26.24361,3.53978
26.36800,26.34337,3.54017
26.46800,26.44361,3.54950
26.56800,26.54330,3.55609
26.66800,26.64360,3.55580
26.76800,26.74344,3.56344
26.86800,26.84342,3.57508
26.96800,26.94364,3.60163
27.06800,27.04335,3.56387
27.16800,27.14363,3.60475
27.26800,27.24348,3.61246
27.36800,27.34336,3.58351
27.46800,27.44366,3.60642
27.56800,27.54333,3.61041
27.66800,27.64360,3.62351
27.76800,27.74336,3.61982
27.86800,27.84357,3.65510
27.96800,27.94354,3.63516
28.06800,28.04339,3.63468
28.16800,28.14365,3.67651
28.26800,28.24335,3.65670
28.36800,28.34357,3.64697
28.46800,28.44352,3.68060
28.56800,28.54337,3.65206
28.66800,28.64367,3.66474
28.76800,28.74336,3.69211
28.86800,28.84362,3.73230
28.96800,28.94335,3.67693
29.06800,29.04351,3.72680
29.16800,29.14357,3.71810
29.26800,29.24335,3.72314
29.36800,29.34363,3.75294
29.46800,29.44338,3.75737
29.56800,29.54356,3.76282
29.66800,29.64350,3.75507
29.76800,29.74339,3.79932
29.86800,29.84369,3.78270
29.96800,29.94328,3.76019
30.06800,30.04370,3.79011
30.16800,30.14340,3.79112
30.26800,30.24348,3.80994
30.36800,30.34356,3.83809
30.46800,30.44341,3.81487
30.56800,30.54356,3.83312
30.66800,30.64339,3.83922
30.76800,30.74358,3.85618
30.86800,30.84348,3.83531
30.96800,30.94337,3.86184
31.06800,31.04369,3.86293
31.16800,31.14332,3.89625
31.26800,31.24363,3.88911
31.36800,31.34346,3.92135
31.46800,31.44344,3.91213
31.56800,31.54355,3.91475
31.66800,31.64344,3.92595
31.76800,31.74362,3.96263
31.86800,31.84338,3.92887
31.96800,31.94354,3.95719
32.06800,32.04353,3.93644
32.16800,32.14330,3.94956
32.26800,32.24373,3.97635
32.36800,32.34336,3.97272
32.46800,32.44356,3.98862
32.56800,32.54346,3.97502
32.66800,32.64342,3.98950
32.76800,32.74360,3.99392
32.86800,32.84338,3.98397
32.96800,32.94367,4.01568
33.06800,33.04340,4.02278
33.16800,33.14343,4.06444
33.26800,33.24361,4.02956
33.36800,33.34341,4.06379
33.46800,33.44368,4.02397
33.56800,33.54332,4.06163
33.66800,33.64363,4.05132
33.76800,33.74339,4.08981
33.86800,33.84343,4.11161
33.96800,33.94369,4.08902
34.06800,34.04330,4.11102
34.16800,34.14362,4.11205
34.26800,34.24346,4.11642
34.36800,34.34343,4.12775
34.46800,34.44358,4.11629
34.56800,34.54345,4.12270
34.66800,34.64360,4.12244
34.76800,34.74328,4.14834
34.86800,34.84363,4.15627
34.96800,34.94350,4.16059
35.06800,35.04339,4.18489
35.16800,35.14370,4.17137
35.26800,35.24335,4.20943
35.36800,35.34353,4.21824
35.46800,35.44351,4.21780
35.56800,35.54345,4.23801
35.66800,35.64355,4.20047
35.76800,35.74342,4.26111
35.86800,35.84367,4.25831
35.96800,35.94337,4.28912
36.06800,36.04350,4.26559
36.16800,36.14356,4.27476
36.26800,36.24336,4.32608
36.36800,36.34359,4.30933
36.46800,36.44337,4.33936
36.56800,36.54364,4.33109
36.66800,36.64347,4.33817
36.76800,36.74343,4.34918
36.86800,36.84366,4.39323
36.96800,36.94326,4.40314
37.06800,37.04369,4.39458
37.16800,37.14342,4.42355
37.26800,37.24345,4.42380
37.36800,37.34353,4.41411
37.46800,37.44343,4.45911
37.56800,37.54361,4.46336
37.66800,37.64334,4.48001
37.76800,37.74365,4.44441
37.86800,37.84343,4.49445
37.96800,37.94334,4.47200
38.06800,38.04369,4.48084
38.16800,38.14336,4.51477
38.26800,38.24362,4.51881
38.36800,38.34345,4.55100
38.46800,38.44353,4.54974
38.56800,38.54350,4.55203
38.66800,38.64344,4.55483
38.76800,38.74366,4.57702
38.86800,38.84328,4.60145
38.96800,38.94358,4.54655
39.06800,39.04351,4.60371
39.16800,39.14335,4.64339
39.26800,39.24367,4.67470
39.36800,39.34334,4.68303
39.46800,39.44352,4.69685
39.56800,39.54343,4.67451
39.66800,39.64348,4.68766
39.76800,39.74363,4.73094
39.86800,39.84337,4.74677
39.96800,39.94367,4.74727
40.06800,40.04340,4.77075
40.16800,40.14345,4.78571
40.26800,40.24355,4.81204
40.36800,40.34343,4.83324
40.46800,40.44363,4.84567
40.56800,40.54333,4.83335
40.66800,40.64361,4.89436
40.76800,40.74347,4.91860
40.86800,40.84342,4.91218
40.96800,40.94365,4.92579
41.06800,41.04327,4.93746
41.16800,41.14360,4.96895
41.26800,41.24343,4.97046
41.36800,41.34356,4.99972
41.46800,41.44350,5.02454
41.56800,41.54342,5.04245
41.66800,41.64370,5.07700
41.76800,41.74324,5.09735
41.86800,41.84362,5.11017
41.96800,41.94350,5.12464
42.06800,42.04332,5.17861
42.16800,42.14368,5.15674
42.26800,42.24337,5.17171
42.36800,42.34360,5.24389
42.46800,42.44342,5.24764
42.56800,42.54350,5.25146
42.66800,42.64344,5.29888
42.76800,42.74338,5.31002
42.86800,42.84367,5.33410
42.96800,42.94336,5.36306
43.06800,43.04356,5.36654
43.16800,43.14352,5.41593
43.26800,43.24342,5.44326
43.36800,43.34359,5.48267
43.46800,43.44333,5.48155
43.56800,43.54362,5.53724
43.66800,43.64340,5.54837
43.76800,43.74345,5.59477
43.86800,43.84360,5.61606
43.96800,43.94342,5.64129
44.06800,44.04362,5.65990
44.16800,44.14337,5.67416
44.26800,44.24347,5.73145
44.36800,44.34350,5.76518
44.46800,44.44337,5.78441
44.56800,44.54364,5.81930
44.66800,44.64330,5.82334
44.76800,44.74363,5.85791
44.86800,44.84350,5.86688
44.96800,44.94340,5.92933
45.06800,45.04360,5.89709
45.16800,45.14339,5.96115
45.26800,45.24358,6.02060
45.36800,45.34339,6.02551
45.46800,45.44353,6.05942
45.56800,45.54352,6.08399
45.66800,45.64339,6.10394
45.76800,45.74368,6.13355
45.86800,45.84325,6.16820
45.96800,45.94363,6.18430
46.06800,46.04345,6.19637
46.16800,46.14341,6.27451
46.26800,46.24361,6.32294
46.36800,46.34340,6.39176
46.46800,46.44363,6.48021
46.56800,46.54336,6.55500
46.66800,46.64347,6.59451
46.76800,46.74359,6.65457
46.86800,46.84339,6.77901
46.96800,46.94366,6.82317
47.06800,47.04333,6.88957
47.16800,47.14359,6.97460
47.26800,47.24347,7.07571
47.36800,47.34337,7.14063
47.46800,47.44360,7.22050
47.56800,47.54334,7.29991
47.66800,47.64359,7.40254
47.76800,47.74348,7.51389
47.86800,47.84345,7.63443
47.96800,47.94355,7.70933
48.06800,48.04342,7.81377
48.16800,48.14362,7.95716
48.26800,48.24329,8.05907
48.36800,48.34363,8.19521
48.46800,48.44349,8.36666
48.56800,48.54338,8.49763
48.66800,48.64364,8.69210
48.76800,48.74335,8.90226
48.86800,48.84359,9.07961
48.96800,48.94346,9.26245
49.06800,49.04338,9.48740
49.16800,49.14362,9.72805
49.26800,49.24335,9.92938
49.36800,49.34367,10.12865
49.46800,49.44335,10.42871
49.56800,49.54359,10.69722
49.66800,49.64351,10.96578
49.76800,49.74338,11.28449
49.86800,49.84362,11.56251
49.96800,49.94334,11.87700
50.06800,50.04361,12.17944
50.16800,50.14352,12.53950
50.26800,50.24339,12.87378
50.36800,50.34365,13.21732
50.46800,50.44336,13.58162
50.56800,50.54360,13.82678
50.66800,50.64338,14.18614
50.76800,50.74353,14.52632
50.86800,50.84351,14.87923
50.96800,50.94343,15.16708
51.06800,51.04364,15.46405
51.16800,51.14333,15.77964
51.26800,51.24361,16.06472
51.36800,51.34349,16.40183
51.46800,51.44332,16.69495
51.56800,51.54370,17.02981
51.66800,51.64337,17.48819
51.76800,51.74357,17.87698
51.86800,51.84341,18.25287
51.96800,51.94350,18.60227
52.06800,52.04353,19.01403
52.16800,52.14341,19.41575
52.26800,52.24363,19.81878
52.36800,52.34337,20.18000
52.46800,52.44350,20.56681
52.56800,52.54355,20.92773
52.66800,52.64341,21.27808
52.76800,52.74366,21.58685
52.86800,52.84333,21.93579
52.96800,52.94363,22.18145
53.06800,53.04332,22.44165
53.16800,53.14348,22.64786
53.26800,53.24360,22.86702
53.36800,53.34338,23.02049
53.46800,53.44360,23.11630
53.56800,53.54337,23.21398
53.66800,53.64352,23.29714
53.76800,53.74353,23.31146
53.86800,53.84343,23.35975
53.96800,53.94366,23.32118
54.06800,54.04325,23.24985
54.16800,54.14367,23.13647
54.26800,54.24347,23.02222
54.36800,54.34346,22.83444
54.46800,54.44361,22.62483
54.56800,54.54342,22.42161
54.66800,54.64355,22.16361
54.76800,54.74345,22.00926
54.86800,54.84356,21.88464
54.96800,54.94346,21.71605
55.06800,55.04339,21.57191
55.16800,55.14367,21.43117
55.26800,55.24332,21.35777
55.36800,55.34362,21.28774
55.46800,55.44353,21.17272
55.56800,55.54342,21.13279
55.66800,55.64358,21.10107
55.76800,55.74340,21.04267
55.86800,55.84361,21.04082
55.96800,55.94343,21.00523
56.06800,56.04349,21.02752
56.16800,56.14356,20.97529
56.26800,56.24331,20.97800
56.36800,56.34372,20.99408
56.46800,56.44337,20.99513
56.56800,56.54354,21.01329
56.66800,56.64349,20.95430
56.76800,56.74341,20.94837
56.86800,56.84365,20.93262
56.96800,56.94334,20.81948
57.06800,57.04365,20.61658
57.16800,57.14343,20.43717
57.26800,57.24338,20.38332
57.36800,57.34362,20.36076
57.46800,57.44340,20.36017
57.56800,57.54365,20.36637
57.66800,57.64337,20.41097
57.76800,57.74358,20.55396
57.86800,57.84341,20.47551
57.96800,57.94344,20.33408
58.02500,58.00064,20.24623
